CORRW ASCII
  CorrWare for Windows: Version 2.6b
  Potentiodynamic	[-0.1 OC,0.1 OC,0.166mV/S][default]	CP HGD.cor
  Date: 03-22-2018    Time: 13:39:11


  Open Circuit Potential (V): -1.004
  Begin Information:          Cell Information
    Surface Area:             1
    Density:                  0
    Weight:                   0
    Polarity:                 0
    PolarityI:                0
    Corrosion Unit Type:      0
    Reference Type:           0
    Reference Potential:      0
    User-Defined Potential:   0
    Stern-Geary:              26
  End Information:            Cell Information
  Begin Pstat:                273
    Pstat Title:              Instrument #1
    Current Range:            0
    Current Range Min.:       0
    Current Gain:             0
    Potential Range:          0
    Auxilary Type:            0
    iR Comp. Type:            0
    iR Ohms:                  0
    iR Time:                  1
    iR Percent:               100
    LP Filter Type:           0
    IE Filter Type:           0
    Bandwidth Type:           0
    Point Avg:                66
    Scan Interpolation:       0
    Oversample Rate:          1000
    External Input:           0
    Trigger Wait1:            0
    Trigger Wait2:            0
    Trigger Wait Type:        1
    Trigger Out:              0
    Trigger Out Type:         1
  End Pstat:                  273
  Begin Experiment:           Potentiodynamic	[-0.1 OC,0.1 OC,0.166mV/S][default]	CP HGD.cor
    Data File:                C:\WINDOWS\Escritorio\Mauro2\HDG CP\CP HGD.cor
    Data Append:              0
    Comment Lines:            0
    Potential #1:             -0.1
    Potential #1 Type:        0
    Potential #2:             0
    Potential #2 Type:        0
    Use Potential #2:         0
    Potential #3:             0
    Potential #3 Type:        0
    Use Potential #3:         0
    Potential #4:             0.1
    Potential #4 Type:        0
    Scan Rate:                0.166
    Measure Rate Type:        2
    Measure Rate #1:          2000
    Measure Rate #2:          1
    Measure Rate #3:          1
    Measure Rate #4:          0.1
    Measure Rate #5:          1
    Use Threshold:            0
    Use Reverse:              0
    Threshold E_Min:          -10
    Threshold E_Max:          10
    Threshold I_Min:          0.001
    Threshold I_Max:          -0.001
    Axes Type:                5
    Use Custom Pstat:         0
  End Experiment:             Potentiodynamic	[-0.1 OC,0.1 OC,0.166mV/S][default]	CP HGD.cor
  Data Points:                201
  E(Volts)	I(A/cm2)	T(Seconds)
End Comments
-1.107000E+00	-2.300000E-05	0.000000E+00
-1.106000E+00	-2.110000E-05	6.000000E+00
-1.105000E+00	-2.130000E-05	1.200000E+01
-1.104000E+00	-2.160000E-05	1.800000E+01
-1.103000E+00	-2.180000E-05	2.400000E+01
-1.102000E+00	-2.200000E-05	3.000000E+01
-1.101000E+00	-2.210000E-05	3.600000E+01
-1.100000E+00	-2.230000E-05	4.200000E+01
-1.099000E+00	-2.230000E-05	4.800000E+01
-1.098000E+00	-2.240000E-05	5.400000E+01
-1.097000E+00	-2.250000E-05	6.000000E+01
-1.096000E+00	-2.250000E-05	6.600000E+01
-1.095000E+00	-2.260000E-05	7.200000E+01
-1.094000E+00	-2.270000E-05	7.800000E+01
-1.093000E+00	-2.270000E-05	8.400000E+01
-1.092000E+00	-2.270000E-05	9.000000E+01
-1.091000E+00	-2.270000E-05	9.600000E+01
-1.090000E+00	-2.270000E-05	1.020000E+02
-1.089000E+00	-2.270000E-05	1.080000E+02
-1.088000E+00	-2.270000E-05	1.140000E+02
-1.087000E+00	-2.270000E-05	1.200000E+02
-1.086000E+00	-2.270000E-05	1.260000E+02
-1.085000E+00	-2.260000E-05	1.320000E+02
-1.084000E+00	-2.260000E-05	1.380000E+02
-1.083000E+00	-2.260000E-05	1.440000E+02
-1.082000E+00	-2.250000E-05	1.500000E+02
-1.081000E+00	-2.250000E-05	1.560000E+02
-1.080000E+00	-2.250000E-05	1.620000E+02
-1.079000E+00	-2.240000E-05	1.680000E+02
-1.078000E+00	-2.240000E-05	1.740000E+02
-1.077000E+00	-2.240000E-05	1.800000E+02
-1.076000E+00	-2.230000E-05	1.860000E+02
-1.075000E+00	-2.220000E-05	1.920000E+02
-1.074000E+00	-2.220000E-05	1.980000E+02
-1.073000E+00	-2.210000E-05	2.040000E+02
-1.072000E+00	-2.200000E-05	2.100000E+02
-1.071000E+00	-2.200000E-05	2.160000E+02
-1.070000E+00	-2.200000E-05	2.220000E+02
-1.069000E+00	-2.190000E-05	2.280000E+02
-1.068000E+00	-2.190000E-05	2.340000E+02
-1.067000E+00	-2.180000E-05	2.400000E+02
-1.066000E+00	-2.170000E-05	2.460000E+02
-1.065000E+00	-2.170000E-05	2.520000E+02
-1.064000E+00	-2.160000E-05	2.580000E+02
-1.063000E+00	-2.150000E-05	2.640000E+02
-1.062000E+00	-2.150000E-05	2.700000E+02
-1.061000E+00	-2.140000E-05	2.760000E+02
-1.060000E+00	-2.130000E-05	2.820000E+02
-1.059000E+00	-2.130000E-05	2.880000E+02
-1.058000E+00	-2.120000E-05	2.940000E+02
-1.057000E+00	-2.110000E-05	3.000000E+02
-1.056000E+00	-2.100000E-05	3.060000E+02
-1.055000E+00	-2.100000E-05	3.120000E+02
-1.054000E+00	-2.090000E-05	3.180000E+02
-1.053000E+00	-2.080000E-05	3.240000E+02
-1.052000E+00	-2.070000E-05	3.300000E+02
-1.051000E+00	-2.060000E-05	3.360000E+02
-1.050000E+00	-2.050000E-05	3.420000E+02
-1.049000E+00	-2.050000E-05	3.480000E+02
-1.048000E+00	-2.030000E-05	3.540000E+02
-1.047000E+00	-2.020000E-05	3.600000E+02
-1.046000E+00	-2.010000E-05	3.660000E+02
-1.045000E+00	-2.010000E-05	3.720000E+02
-1.044000E+00	-1.990000E-05	3.780000E+02
-1.043000E+00	-1.990000E-05	3.840000E+02
-1.042000E+00	-1.970000E-05	3.900000E+02
-1.041000E+00	-1.960000E-05	3.960000E+02
-1.040000E+00	-1.950000E-05	4.020000E+02
-1.039000E+00	-1.940000E-05	4.080000E+02
-1.038000E+00	-1.930000E-05	4.140000E+02
-1.037000E+00	-1.920000E-05	4.200000E+02
-1.036000E+00	-1.910000E-05	4.260000E+02
-1.035000E+00	-1.900000E-05	4.320000E+02
-1.034000E+00	-1.890000E-05	4.380000E+02
-1.033000E+00	-1.880000E-05	4.440000E+02
-1.032000E+00	-1.860000E-05	4.500000E+02
-1.031000E+00	-1.850000E-05	4.560000E+02
-1.030000E+00	-1.840000E-05	4.620000E+02
-1.029000E+00	-1.830000E-05	4.680000E+02
-1.028000E+00	-1.810000E-05	4.740000E+02
-1.027000E+00	-1.800000E-05	4.800000E+02
-1.026000E+00	-1.790000E-05	4.860000E+02
-1.025000E+00	-1.780000E-05	4.920000E+02
-1.024000E+00	-1.760000E-05	4.980000E+02
-1.023000E+00	-1.750000E-05	5.040000E+02
-1.022000E+00	-1.730000E-05	5.100000E+02
-1.021000E+00	-1.720000E-05	5.160000E+02
-1.020000E+00	-1.700000E-05	5.220000E+02
-1.019000E+00	-1.690000E-05	5.280000E+02
-1.018000E+00	-1.670000E-05	5.340000E+02
-1.017000E+00	-1.660000E-05	5.400000E+02
-1.016000E+00	-1.640000E-05	5.460000E+02
-1.015000E+00	-1.620000E-05	5.520000E+02
-1.014000E+00	-1.610000E-05	5.580000E+02
-1.013000E+00	-1.590000E-05	5.640000E+02
-1.012000E+00	-1.570000E-05	5.700000E+02
-1.011000E+00	-1.550000E-05	5.760000E+02
-1.010000E+00	-1.540000E-05	5.820000E+02
-1.009000E+00	-1.520000E-05	5.880000E+02
-1.008000E+00	-1.500000E-05	5.940000E+02
-1.007000E+00	-1.480000E-05	6.000000E+02
-1.004000E+00	-1.453000E-05	6.060000E+02
-1.003000E+00	-1.432000E-05	6.120000E+02
-1.002000E+00	-1.411000E-05	6.180000E+02
-1.001000E+00	-1.389000E-05	6.240000E+02
-1.000000E+00	-1.368000E-05	6.300000E+02
-9.990000E-01	-1.345000E-05	6.360000E+02
-9.990000E-01	-1.323000E-05	6.420000E+02
-9.980000E-01	-1.299000E-05	6.480000E+02
-9.970000E-01	-1.275000E-05	6.540000E+02
-9.960000E-01	-1.250000E-05	6.600000E+02
-9.950000E-01	-1.223000E-05	6.660000E+02
-9.940000E-01	-1.198000E-05	6.720000E+02
-9.930000E-01	-1.170000E-05	6.780000E+02
-9.920000E-01	-1.141000E-05	6.840000E+02
-9.910000E-01	-1.113000E-05	6.900000E+02
-9.900000E-01	-1.083000E-05	6.960000E+02
-9.890000E-01	-1.029000E-05	7.020000E+02
-9.880000E-01	-9.950000E-06	7.080000E+02
-9.870000E-01	-9.640000E-06	7.140000E+02
-9.860000E-01	-9.300000E-06	7.200000E+02
-9.850000E-01	-8.930000E-06	7.260000E+02
-9.840000E-01	-8.560000E-06	7.320000E+02
-9.830000E-01	-8.170000E-06	7.380000E+02
-9.820000E-01	-7.750000E-06	7.440000E+02
-9.810000E-01	-7.320000E-06	7.500000E+02
-9.800000E-01	-6.840000E-06	7.560000E+02
-9.790000E-01	-6.380000E-06	7.620000E+02
-9.780000E-01	-5.920000E-06	7.680000E+02
-9.770000E-01	-5.410000E-06	7.740000E+02
-9.760000E-01	-4.870000E-06	7.800000E+02
-9.750000E-01	-4.300000E-06	7.860000E+02
-9.740000E-01	-3.720000E-06	7.920000E+02
-9.730000E-01	-3.080000E-06	7.980000E+02
-9.720000E-01	-2.360000E-06	8.040000E+02
-9.720000E-01	-1.610000E-06	8.100000E+02
-9.710000E-01	-7.800000E-07	8.160000E+02
-9.700000E-01	4.000000E-08	8.220000E+02
-9.740000E-01	2.002000E-07	8.280000E+02
-9.690000E-01	1.762000E-06	8.340000E+02
-9.670000E-01	3.060000E-06	8.400000E+02
-9.660000E-01	4.290000E-06	8.460000E+02
-9.650000E-01	5.610000E-06	8.520000E+02
-9.640000E-01	7.010000E-06	8.580000E+02
-9.640000E-01	8.500000E-06	8.640000E+02
-9.630000E-01	1.012000E-05	8.700000E+02
-9.620000E-01	1.180000E-05	8.760000E+02
-9.610000E-01	1.392000E-05	8.820000E+02
-9.600000E-01	1.606000E-05	8.880000E+02
-9.600000E-01	1.829000E-05	8.940000E+02
-9.590000E-01	2.037000E-05	9.000000E+02
-9.560000E-01	2.340000E-05	9.060000E+02
-9.550000E-01	2.630000E-05	9.120000E+02
-9.540000E-01	2.950000E-05	9.180000E+02
-9.530000E-01	3.300000E-05	9.240000E+02
-9.520000E-01	3.680000E-05	9.300000E+02
-9.510000E-01	4.100000E-05	9.360000E+02
-9.500000E-01	4.550000E-05	9.420000E+02
-9.490000E-01	5.030000E-05	9.480000E+02
-9.480000E-01	5.540000E-05	9.540000E+02
-9.470000E-01	6.090000E-05	9.600000E+02
-9.460000E-01	6.670000E-05	9.660000E+02
-9.460000E-01	7.280000E-05	9.720000E+02
-9.450000E-01	7.910000E-05	9.780000E+02
-9.440000E-01	8.550000E-05	9.840000E+02
-9.430000E-01	9.220000E-05	9.900000E+02
-9.420000E-01	9.920000E-05	9.960000E+02
-9.410000E-01	1.064000E-04	1.002000E+03
-9.400000E-01	1.136000E-04	1.008000E+03
-9.390000E-01	1.210000E-04	1.014000E+03
-9.380000E-01	1.286000E-04	1.020000E+03
-9.370000E-01	1.363000E-04	1.026000E+03
-9.360000E-01	1.442000E-04	1.032000E+03
-9.350000E-01	1.523000E-04	1.038000E+03
-9.340000E-01	1.604000E-04	1.044000E+03
-9.330000E-01	1.692000E-04	1.050000E+03
-9.330000E-01	1.779000E-04	1.056000E+03
-9.320000E-01	1.870000E-04	1.062000E+03
-9.310000E-01	1.959000E-04	1.068000E+03
-9.280000E-01	2.060000E-04	1.074000E+03
-9.270000E-01	2.150000E-04	1.080000E+03
-9.260000E-01	2.250000E-04	1.086000E+03
-9.250000E-01	2.350000E-04	1.092000E+03
-9.240000E-01	2.450000E-04	1.098000E+03
-9.230000E-01	2.550000E-04	1.104000E+03
-9.220000E-01	2.640000E-04	1.110000E+03
-9.210000E-01	2.740000E-04	1.116000E+03
-9.200000E-01	2.830000E-04	1.122000E+03
-9.190000E-01	2.930000E-04	1.128000E+03
-9.180000E-01	3.030000E-04	1.134000E+03
-9.170000E-01	3.120000E-04	1.140000E+03
-9.160000E-01	3.220000E-04	1.146000E+03
-9.150000E-01	3.310000E-04	1.152000E+03
-9.140000E-01	3.400000E-04	1.158000E+03
-9.130000E-01	3.500000E-04	1.164000E+03
-9.120000E-01	3.580000E-04	1.170000E+03
-9.110000E-01	3.670000E-04	1.176000E+03
-9.100000E-01	3.760000E-04	1.182000E+03
-9.090000E-01	3.850000E-04	1.188000E+03
-9.080000E-01	3.940000E-04	1.194000E+03
-9.070000E-01	4.030000E-04	1.200000E+03
